Water Level [m],Discharge [m³/s]
-3.8,-8.3142
-3.6,-26.361
-3.4,-51.745
-3.2,-83.469
-3,-120.91
-2.8,-163.63
-2.6,-211.29
-2.4,-263.6
-2.2,-320.36
-2,-381.36
-1.8,-451.78
-1.6,-532.39
-1.4,-621.53
-1.2,-718.44
-1,-822.62
-0.8,-933.69
-0.6,-1051.3
-0.4,-1175.3
-0.2,-1305.4
