Water Level [m],Discharge [m³/s]
-3,0
-2.8,-2.07
-2.6,-6.54
-2.4,-12.78
-2.2,-20.54
-2,-29.64
-1.8,-39.97
-1.6,-51.41
-1.4,-63.9
-1.2,-77.38
-1,-91.77
-0.8,-108.83
-0.6,-128.78
-0.4,-151.09
-0.2,-175.49
0,-201.81
0.2,-229.92
0.4,-259.73
0.6,-291.14
0.8,-324.08
